9.374458908612753305e+01,1.083100854700854683e+02,1.454688845058076367e+02
9.337046814973635378e+01,1.081484097203609878e+02,1.455454614491199266e+02
9.287434905227252102e+01,1.075239456942348824e+02,1.445529568658313906e+02
9.225646659214032752e+01,1.067089001633846976e+02,1.435810559807378013e+02
9.197272974720155503e+01,1.064215831376951940e+02,1.430939615868804253e+02
9.174860925492818353e+01,1.061602280320747980e+02,1.425191697293686275e+02
9.192688364349646690e+01,1.063768069955659286e+02,1.423943700858787054e+02
9.125006793450707221e+01,1.055623233195840669e+02,1.412014187158553682e+02
9.118278089674680587e+01,1.054220503796629487e+02,1.408491403216860931e+02
9.083353715419039531e+01,1.050632628583523456e+02,1.402111192116836662e+02
9.007522120483412209e+01,1.042725983475150997e+02,1.390878075286718740e+02
8.957341950502316763e+01,1.037796151372213131e+02,1.384523286265621778e+02
8.901156389125698354e+01,1.031774291938998402e+02,1.376335739319885079e+02
8.870810064252695781e+01,1.028223293100342346e+02,1.371089743589743932e+02
8.837398853800124243e+01,1.024476712247412991e+02,1.365292934241977605e+02
8.813342416783869737e+01,1.021232712142522985e+02,1.359091801453350570e+02
8.772431120307932417e+01,1.017042333516626371e+02,1.352360865916128034e+02
8.702298420703958470e+01,1.008861581860536489e+02,1.340319741556785402e+02
8.640769015268244857e+01,1.001354566465891338e+02,1.328869519540551778e+02
8.610552328491006335e+01,9.962296841618449150e+01,1.321213928493772300e+02
8.572612472830178376e+01,9.914226736476599910e+01,1.314625603204330275e+02
8.551900887373859916e+01,9.889407989070154770e+01,1.310081229878527722e+02
8.536669979616937098e+01,9.866025301955762927e+01,1.306720718292537811e+02
8.548194512609168783e+01,9.874425343382112885e+01,1.307101740609514593e+02
8.546352261919111015e+01,9.877268952028825311e+01,1.306085580516818538e+02
8.543029220757510700e+01,9.876688938381575156e+01,1.305293712420660768e+02
8.561179210183625798e+01,9.900344481649794659e+01,1.305175629168992089e+02
8.574809082275989169e+01,9.909225381835445035e+01,1.305327857500858215e+02
8.590078374379545778e+01,9.922672143140675871e+01,1.306036664381157095e+02
8.592975407720986425e+01,9.924060845394299690e+01,1.305958328025530193e+02
8.592105613000919107e+01,9.920484810754558680e+01,1.303631995175237819e+02
9.239501615136134660e+01,1.073181091797843862e+02,1.435466210326616476e+02
9.188957000710738043e+01,1.067060446068975352e+02,1.427665625951873665e+02
9.197219707746022266e+01,1.066934336713623992e+02,1.425694864489430813e+02
9.170703375215568087e+01,1.061981892091647097e+02,1.418769483452410043e+02
9.123686867671014511e+01,1.054806444475732263e+02,1.408864814852062750e+02
9.051466868592362403e+01,1.045557727225872355e+02,1.397239630824855396e+02
9.008738462498735089e+01,1.039778573602041405e+02,1.388937730652497748e+02
8.983929062893692219e+01,1.037055683690279153e+02,1.385616707045256533e+02
8.965483093635256751e+01,1.034871404528763748e+02,1.381444346695226955e+02
8.932748695808598427e+01,1.031482093601966454e+02,1.374010500989385264e+02
8.901028183371600733e+01,1.027969887867875940e+02,1.366480892070081268e+02
8.863277045161103729e+01,1.023302142722432961e+02,1.360093317955636962e+02
8.907739124171718004e+01,1.028674913569576717e+02,1.365526829443963948e+02
8.926363902766755132e+01,1.030774813988893044e+02,1.365749476452887166e+02
8.953978060863414612e+01,1.033235527246992689e+02,1.367310934182590927e+02
8.953714496885227447e+01,1.033247668320839239e+02,1.365946890507866556e+02
8.950918393755200952e+01,1.032848524484672623e+02,1.362962606755403669e+02
8.979535902383067025e+01,1.034975126453564087e+02,1.364551285393960427e+02
9.018284262906894355e+01,1.038649111894395674e+02,1.367609855553251634e+02
9.023010173856172855e+01,1.039316560681863848e+02,1.366680227242375452e+02
9.023199045608883750e+01,1.039405204966368643e+02,1.365510453097862182e+02
8.994158950617281789e+01,1.034512546967256128e+02,1.358876912238325758e+02
8.971979210199882004e+01,1.031101580794312014e+02,1.353539771935759575e+02
8.992176821952091359e+01,1.032149205748865342e+02,1.351770730085032994e+02
8.992366923659531608e+01,1.032050990749551573e+02,1.350696534804082489e+02
9.032333294833303228e+01,1.035590654757321829e+02,1.353673737840405238e+02
9.020468997901630814e+01,1.034186434822663330e+02,1.352040726239828530e+02
9.066224515719272858e+01,1.037946141632263561e+02,1.355621562400762059e+02
9.081367847032649365e+01,1.039324069861490045e+02,1.356411858002225017e+02
9.083886863946912626e+01,1.041459871644468365e+02,1.355502568992666284e+02
9.104152836380683311e+01,1.042929020159399727e+02,1.357141959681200376e+02
9.114926502647152518e+01,1.043626378075366716e+02,1.357373902211150209e+02
9.134031441232323800e+01,1.045351867482590364e+02,1.358016086789222641e+02
9.115036014405771425e+01,1.042497803245009038e+02,1.354930322644522107e+02
9.110283351993805923e+01,1.041110953898396332e+02,1.352652687722232940e+02
9.132744742101687052e+01,1.042900844075275870e+02,1.354224257537695451e+02
9.149771394418200998e+01,1.043898400216014295e+02,1.354946709262850959e+02
9.413835258162157515e+01,1.088258502201902758e+02,1.452123231025636017e+02
9.338136114087328110e+01,1.080536964592729703e+02,1.442183780596185727e+02
9.227681531279324645e+01,1.066399544031933146e+02,1.423735675473185722e+02
9.129530812324924227e+01,1.055764666977902664e+02,1.407632119514473175e+02
9.096822001527881696e+01,1.050872994652405339e+02,1.400898701298701212e+02
9.046190157348507910e+01,1.046169847115276923e+02,1.391243239221811336e+02
9.029931672025725220e+01,1.042982424729612205e+02,1.385137715580239899e+02
8.989769145890279844e+01,1.037429665582471898e+02,1.376960997843631844e+02
8.936092114889144966e+01,1.030307190997734494e+02,1.365761633639745867e+02
8.907557857538796497e+01,1.026033883037695063e+02,1.357881444013303565e+02
8.886788507281340799e+01,1.023707924773686244e+02,1.352423293461334595e+02
8.833581524823652842e+01,1.017703001270234751e+02,1.342928333018025739e+02
8.803162686686376048e+01,1.013577190320260968e+02,1.335762152916433934e+02
8.764164711757713633e+01,1.008927198533324798e+02,1.328503065428668037e+02
8.760756957765651975e+01,1.008156805876537447e+02,1.327161473848229321e+02
8.785332921114290627e+01,1.010718595417859120e+02,1.329101178078625480e+02
8.773653920807468864e+01,1.008217261904760989e+02,1.325918057712216012e+02
8.770747702025563797e+01,1.009323054360202576e+02,1.327233521802615144e+02
8.795808253417675360e+01,1.012487183738013243e+02,1.330212616047745655e+02
8.804758418740848924e+01,1.012846819447149329e+02,1.329092962755829035e+02
8.812598727306750845e+01,1.013715796369081232e+02,1.329042797429658549e+02
8.812690296953383040e+01,1.013957337427812604e+02,1.329017728931353020e+02
8.800230003667621759e+01,1.013514984428128969e+02,1.328946894018040155e+02
8.833314131747650322e+01,1.016503979683483294e+02,1.332017281427111186e+02
8.841762210040577941e+01,1.017012357149493909e+02,1.332505094614265033e+02
8.837915635823857485e+01,1.016673212518555545e+02,1.330142967590301168e+02
8.846453737038065412e+01,1.016831840979722728e+02,1.329371242192066802e+02
8.871947799562128978e+01,1.019343896829105205e+02,1.331767268947872083e+02
8.879157148120845022e+01,1.019842053549496939e+02,1.331708855318103986e+02
8.878850098255956880e+01,1.019956552444117079e+02,1.331816691230656318e+02
8.902685478253437168e+01,1.021878307201602354e+02,1.333333262046461982e+02
8.909392268550158178e+01,1.022904078377762431e+02,1.333443122958913136e+02
8.914508418019113378e+01,1.022852055210071285e+02,1.333632610344304226e+02
8.954392775761664325e+01,1.025852844724692119e+02,1.336830926057654949e+02
8.970564839772394805e+01,1.026863312368972032e+02,1.337796495956872889e+02
9.418175100318782711e+01,1.095024531917270139e+02,1.468872133288653288e+02
9.401003995136353808e+01,1.096483672051415681e+02,1.472668794511029091e+02
9.273209604568450004e+01,1.080536554547730788e+02,1.447624210798369120e+02
9.220925543641645561e+01,1.072025533620603852e+02,1.435371921034171692e+02
9.212015166980319236e+01,1.071375115626295553e+02,1.433215248317438864e+02
9.195526798129186830e+01,1.068341431234988903e+02,1.430174638162051224e+02
9.188162978573930673e+01,1.067734496350934279e+02,1.428199313117121392e+02
9.154519081600996344e+01,1.065843158547937009e+02,1.424325124107973579e+02
9.103563230244488125e+01,1.060332909366608476e+02,1.415490903813026478e+02
9.014379446224184278e+01,1.049604408247980842e+02,1.401064912993126939e+02
8.931456733117242663e+01,1.040077106365344264e+02,1.387637674081309171e+02
8.888799927378360621e+01,1.034029883805373942e+02,1.378600472040668024e+02
8.840469155634605158e+01,1.028038216606187234e+02,1.370424836132585256e+02
8.742950839252711148e+01,1.017022637691544844e+02,1.354386983678659249e+02
8.704543001826328918e+01,1.012977406054568377e+02,1.346674933587914609e+02
8.764289217856934044e+01,1.018786353200853512e+02,1.351406815224572995e+02
8.771138167265822005e+01,1.019996099843994841e+02,1.352962761988740965e+02
8.785312163364713456e+01,1.021822296714105960e+02,1.354024134031861877e+02
8.837765683752229506e+01,1.026585460782373218e+02,1.358169074477208653e+02
8.899477770861317083e+01,1.033011532287127636e+02,1.366078891327852034e+02
8.937740465308435489e+01,1.038323166008210592e+02,1.369741136674670940e+02
8.947989297615987425e+01,1.039857312227634480e+02,1.370347090489619291e+02
8.961954385337962492e+01,1.041076711507045331e+02,1.371191673473555852e+02
8.900333288075989913e+01,1.035246103018665877e+02,1.365452735160437783e+02
8.942435588211793629e+01,1.037493299257248509e+02,1.365030428879482827e+02
8.960812211798375415e+01,1.036452949594529827e+02,1.362614914930830707e+02
9.651995341391250349e+01,1.117680160993616454e+02,1.493999983538484173e+02
9.605230224795909066e+01,1.111408372541923484e+02,1.483617283950619026e+02
9.538822132864791570e+01,1.102317803222369719e+02,1.470311113207472715e+02
9.461823061476673047e+01,1.093165817114613390e+02,1.456727216558541897e+02
9.362911918578433301e+01,1.079509493670886968e+02,1.437467076580773835e+02
9.289517042945873015e+01,1.068859130780325728e+02,1.422432041621287055e+02
9.279093765491514034e+01,1.067124413145539705e+02,1.418406744816727212e+02
9.272594640501607444e+01,1.065684754521964237e+02,1.414613649915975770e+02
9.273036443018808939e+01,1.065779417268109626e+02,1.411507653924976182e+02
9.288961307314069415e+01,1.066709685779526779e+02,1.409039267052378932e+02
9.266034717305892343e+01,1.063933667874345872e+02,1.403538604089451951e+02
9.246450475367333866e+01,1.060374001728608562e+02,1.399354191875540039e+02
9.215210817438506297e+01,1.057910389673010911e+02,1.395828184304243393e+02
9.161110959651037433e+01,1.052896503544166222e+02,1.389568191112322495e+02
9.108507268170433235e+01,1.047585463659147536e+02,1.381411161236424334e+02
9.123100430660949201e+01,1.047049644179512313e+02,1.378888881594496354e+02
9.105326256330353374e+01,1.042929392286716137e+02,1.371588170367484452e+02
9.063411118293468860e+01,1.037336328377504628e+02,1.363487556561084943e+02
9.037683743081477417e+01,1.034256307118033504e+02,1.357544825588879007e+02
9.030915235108912498e+01,1.031160475540079915e+02,1.354336866539702271e+02
9.027725387972071758e+01,1.030949213833463176e+02,1.352662424370204235e+02
9.013148339257732289e+01,1.031188701601498110e+02,1.350549663010102961e+02
9.035810305488649874e+01,1.033607428064393758e+02,1.351945366966663187e+02
9.044057234807844736e+01,1.034190730106644480e+02,1.351695368208492880e+02
9.068559311384775867e+01,1.034947317165117795e+02,1.351606339532545746e+02
9.101724202045252810e+01,1.036063247598387846e+02,1.351187046792686886e+02
9.143141242868419738e+01,1.039314784831438914e+02,1.353637173606481099e+02
9.155177298036532818e+01,1.039870994920386096e+02,1.353082934453453277e+02
9.203773801607941607e+01,1.044061264583206707e+02,1.356054161881157540e+02
9.206151121712331076e+01,1.043738017148692450e+02,1.355586937600327815e+02
9.210626889595292255e+01,1.043657718221155477e+02,1.354906742584414303e+02
9.220368614436418397e+01,1.044080627000118824e+02,1.353775068152187089e+02
9.250609448800432233e+01,1.045715194027401935e+02,1.354428905453395089e+02
9.649496662982680562e+01,1.108040112747492572e+02,1.476758038399259760e+02
9.597664375411957849e+01,1.103706225764203026e+02,1.469825930269386731e+02
9.601665754911816464e+01,1.103229138836939569e+02,1.467079712818425890e+02
9.496983392502809807e+01,1.089303263917942246e+02,1.447400050539153256e+02
9.442855860011188440e+01,1.084082558134789309e+02,1.438295692494826028e+02
9.308214088288718813e+01,1.068097014925373287e+02,1.416321448313987048e+02
9.218732380897739631e+01,1.058767456537954246e+02,1.402202000497255483e+02
9.135747051114026362e+01,1.050994048889024413e+02,1.392142209454723627e+02
9.112875570776259337e+01,1.048885654490107129e+02,1.390293074581430801e+02
9.077143442622939062e+01,1.043127086438152133e+02,1.380383830104321987e+02
9.036814243042610428e+01,1.039622815189425040e+02,1.374852386656020258e+02
9.014677726981538797e+01,1.037011312678353221e+02,1.369048832333586745e+02
8.929349633111674223e+01,1.027036910972253878e+02,1.355407733318046439e+02
8.891158802235706560e+01,1.022229939856759842e+02,1.348356828630732593e+02
8.846690485275247795e+01,1.015140587602760860e+02,1.336959207742202693e+02
8.812786695678350668e+01,1.009393731012398945e+02,1.328757150286011779e+02
8.807405639619506132e+01,1.007937205917199748e+02,1.324046985545512882e+02
8.814644084934275270e+01,1.008441287495786156e+02,1.323411762723289655e+02
8.837451562426539908e+01,1.009679119964004173e+02,1.322527383598719837e+02
8.848362739784680286e+01,1.010490575884703475e+02,1.322838642552707142e+02
8.861647878061552319e+01,1.011575104903508731e+02,1.323160524901439601e+02
8.880659323116226744e+01,1.012066703916560328e+02,1.323548917092379895e+02
8.892896929933556294e+01,1.014642676077340013e+02,1.323884089666484556e+02
8.914095411026745808e+01,1.016320105645427390e+02,1.325162462859030370e+02
8.955935144621473398e+01,1.020338748862216534e+02,1.327227701052327689e+02
8.948363955762644650e+01,1.019396193393131540e+02,1.325603561714507634e+02
8.954094280694917529e+01,1.019234335350381286e+02,1.325763452404189593e+02
8.948175410102321337e+01,1.018181192139029747e+02,1.324822770829949548e+02
8.961759597068419225e+01,1.018882090853324058e+02,1.324982339456946363e+02
9.002144533307793495e+01,1.021936656928947116e+02,1.326268026754785012e+02
9.045316147366300186e+01,1.025889671927331079e+02,1.329263771186441829e+02
9.031154182122021723e+01,1.025627951285588750e+02,1.328156688736692388e+02
9.014905809220269362e+01,1.024464926950868033e+02,1.326170742482093772e+02
9.030298558897247574e+01,1.024997493734335450e+02,1.325048276942355869e+02
9.035201718131530413e+01,1.024886436000850125e+02,1.324163441007903543e+02
9.054153272769620742e+01,1.025954561689571847e+02,1.324511281931826545e+02
9.055090855930680505e+01,1.025635742679581028e+02,1.324188175354123302e+02
9.063395106656972189e+01,1.026148094233867027e+02,1.324237475816334495e+02
9.069946514402487026e+01,1.026408833066994646e+02,1.324621784867657937e+02
9.072772536687634215e+01,1.026214341868824391e+02,1.325025706299292096e+02
9.090452841701525699e+01,1.027288397838214848e+02,1.326264133791593167e+02
9.068738347186800297e+01,1.025712637729237571e+02,1.324474804981012994e+02
9.073578973607959597e+01,1.026339793724488771e+02,1.324592559125042328e+02
9.081597544635903319e+01,1.027212663197581435e+02,1.325336085750785173e+02
9.090974739350805578e+01,1.028197903605685042e+02,1.326300539188385699e+02
9.096364397321426054e+01,1.028570622519841038e+02,1.326329241071429692e+02
9.064509170359434620e+01,1.024591734367306373e+02,1.321143956179222698e+02
9.795284831489844635e+01,1.114779214484776304e+02,1.470025964584305882e+02
9.711174095323103472e+01,1.107717120310334451e+02,1.458917863533571904e+02
9.678116269165246877e+01,1.103216737649062082e+02,1.454364778534923346e+02
9.669528397436434375e+01,1.102628284238208920e+02,1.453552424399752567e+02
9.618934676968986253e+01,1.096530094271211482e+02,1.442894401240277489e+02
9.589747557272086453e+01,1.091927196804648474e+02,1.436671989502871440e+02
9.550224357798725805e+01,1.087389909808570820e+02,1.430270125974560926e+02
9.496572214999919481e+01,1.081651379459771789e+02,1.422096634407049009e+02
9.416176400984464578e+01,1.071777380726996540e+02,1.408700697336866483e+02
9.370910007070067138e+01,1.066413212035514420e+02,1.401314445976508694e+02
9.261444317664022208e+01,1.053393284152574552e+02,1.382023264834250256e+02
9.189926620689661263e+01,1.044718234482758987e+02,1.369242335632184790e+02
9.187854709731770697e+01,1.044899043454893359e+02,1.368089669748625283e+02
9.175397045827554621e+01,1.043811531733004188e+02,1.365979511966383200e+02
9.117175041587795192e+01,1.037878520621809599e+02,1.358719454482876756e+02
9.118000721684471443e+01,1.037856809305484376e+02,1.357104134827644657e+02
9.070834098323619799e+01,1.032135488016721752e+02,1.350615581792761475e+02
9.017065582034041427e+01,1.024923606403504834e+02,1.340266986494239063e+02
8.980220813262519641e+01,1.019973273223818495e+02,1.333290412669657599e+02
8.975493690006172187e+01,1.018489175401980873e+02,1.330236856567754273e+02
8.980521939491082151e+01,1.018747178254191539e+02,1.329775262138515757e+02
8.883453699975318330e+01,1.005869724758725141e+02,1.310001169028537333e+02
8.913529267553120405e+01,1.007102212243792110e+02,1.310032903013528767e+02
8.918144610745508771e+01,1.006938863328996803e+02,1.310456745546432842e+02
8.920268103102651480e+01,1.007148963412268188e+02,1.309909856313290675e+02
8.939642912450956658e+01,1.008655114340285479e+02,1.310922433150939241e+02
8.987775286656841445e+01,1.012225257831017018e+02,1.314065146371148955e+02
9.012031903232390562e+01,1.014565170286530389e+02,1.315197849750178420e+02
9.012985074626870130e+01,1.015600882099139994e+02,1.316075681549425269e+02
9.011725811612708981e+01,1.015509208362770011e+02,1.314335201513130755e+02
9.025051465511830884e+01,1.015275309106885118e+02,1.313198738467330884e+02
9.835671971815874315e+01,1.113116672029569827e+02,1.459742910654026673e+02
9.863854901040828338e+01,1.116630408389202529e+02,1.464152581087254248e+02
9.881877491110058997e+01,1.116598993621946363e+02,1.462197812891532180e+02
9.882096544205664657e+01,1.112684965378856674e+02,1.456040549988347550e+02
9.824913988159808298e+01,1.107604647738894528e+02,1.446681957660477735e+02
9.741907573213254068e+01,1.096807872165786790e+02,1.431829521751244272e+02
9.677288000290283776e+01,1.087864000870860934e+02,1.415889219492724180e+02
9.648796563726578768e+01,1.082869732652003449e+02,1.406135285633175158e+02
9.660195984170773897e+01,1.082272106568570678e+02,1.404041955800797155e+02
9.690440291896325675e+01,1.085027145531070119e+02,1.404664688059067998e+02
9.701058616424015213e+01,1.085334033413537185e+02,1.402355905822219029e+02
9.698696534234990452e+01,1.083844564666101746e+02,1.400455857988165178e+02
9.711091837008079608e+01,1.084285604254292821e+02,1.399690505532188354e+02
9.675142600717997254e+01,1.079855105704027665e+02,1.393575787794175085e+02
9.678902528217599865e+01,1.079148695039105945e+02,1.391857979666198162e+02
9.651575587960910241e+01,1.076609613590611616e+02,1.387194317605277547e+02
9.639598329507288099e+01,1.075005123017263173e+02,1.383917227604632956e+02
9.592808451533615255e+01,1.069777862409750213e+02,1.375771672896719053e+02
9.510464636928648474e+01,1.061312060420108452e+02,1.362882133585084716e+02
9.479699770420008065e+01,1.057627133427408950e+02,1.356746505680314385e+02
9.420539792216460739e+01,1.051436005512876619e+02,1.348175435560527546e+02
9.427161920611440848e+01,1.052225252712031107e+02,1.348124075443788001e+02
9.423392906898057220e+01,1.050935244749678645e+02,1.345811530347613711e+02
9.379381802617085384e+01,1.046213556316497630e+02,1.340423718967838340e+02
9.384336859483912008e+01,1.046472422648893570e+02,1.340577014797603681e+02
9.385627022740413850e+01,1.045609845712938721e+02,1.340232731882216797e+02
9.368117083535587142e+01,1.043659135245039522e+02,1.336928511025428179e+02
9.317694045310955175e+01,1.038358398714718618e+02,1.327979337669947313e+02
9.304023812248190950e+01,1.036788026425934532e+02,1.325748574216042641e+02
9.265567639637912123e+01,1.032345414758391797e+02,1.319518636325589966e+02
9.258488762647823478e+01,1.033594095034351739e+02,1.319580078680940858e+02
9.265405232967205507e+01,1.034022545406841971e+02,1.319515789536451393e+02
9.254309114691722016e+01,1.032764879005886485e+02,1.317727570010106604e+02
9.277017588777474089e+01,1.033771852001811169e+02,1.320255019410770956e+02
9.806971364760309484e+01,1.105086417887263792e+02,1.448055314164809033e+02
9.572647925272489999e+01,1.078866954496392196e+02,1.415145186291298387e+02
9.571690426074759728e+01,1.079927406238039254e+02,1.414988279755071972e+02
9.538967729240451376e+01,1.076544510035419364e+02,1.409806965761510753e+02
9.431212107079558393e+01,1.065261286260611371e+02,1.397089745981407987e+02
9.327055199012301046e+01,1.053192720656531236e+02,1.383320273529626263e+02
9.230694196982335598e+01,1.043720765014997767e+02,1.371369824909599515e+02
9.188372975708502111e+01,1.039268687485115237e+02,1.364901166944509612e+02
9.147895234326921354e+01,1.034137027755795941e+02,1.357424821946716520e+02
9.090501094319213848e+01,1.026769125511787308e+02,1.345771486089073221e+02
9.012145140855704994e+01,1.017416937779229329e+02,1.331945201921828357e+02
9.013903275805023441e+01,1.016800020898278802e+02,1.330633182981836171e+02
9.007724357651076730e+01,1.015552757249219269e+02,1.327033531508470503e+02
9.020443554098631012e+01,1.015036153436263788e+02,1.323320416573922103e+02
8.983105927814517599e+01,1.010340543914164044e+02,1.315343332536585592e+02
8.999568573124864201e+01,1.011849033577412627e+02,1.315757239923476902e+02
8.998162465022780054e+01,1.011745313382640319e+02,1.314938059142680231e+02
9.010588658737465551e+01,1.013529812319224988e+02,1.314967444454531744e+02
9.030996242294762055e+01,1.015570186727064765e+02,1.316040414634460376e+02
9.040901342628957593e+01,1.015928444197583929e+02,1.316171145288668640e+02
9.027601828512297288e+01,1.014383413412244863e+02,1.312291918392070329e+02
9.059543132892552819e+01,1.018264218343622645e+02,1.315194904897689412e+02
9.071575231090596958e+01,1.020031583424017896e+02,1.316295139279772570e+02
9.083443076212523692e+01,1.021609381923944255e+02,1.317471118378759058e+02
9.093951803776968745e+01,1.022878008371120302e+02,1.319079083412227078e+02
9.106723528317102989e+01,1.024484368215371290e+02,1.319808386576513328e+02
9.102085410795571363e+01,1.023788702734508860e+02,1.319836765662258529e+02
9.113217861629084382e+01,1.023244265034086595e+02,1.316887843457686529e+02
9.108036409493827534e+01,1.023294686668885589e+02,1.317119301856198490e+02
9.085559019499972067e+01,1.021782107708293950e+02,1.315245522342440267e+02
9.054980432069615404e+01,1.017353361685629238e+02,1.309543909708843330e+02
9.040005262775849815e+01,1.016537456445992973e+02,1.308360040408438181e+02
9.042833494977064390e+01,1.017110707999570707e+02,1.307431331345713375e+02
9.747958254094200470e+01,1.103931310688782474e+02,1.453993610491891104e+02
9.659161078801258782e+01,1.094902013279074993e+02,1.441883247936471264e+02
9.546013414009480869e+01,1.081780757779484219e+02,1.423312764118324765e+02
9.487911919300007924e+01,1.075272881782701546e+02,1.413711365353140081e+02
9.376234326697642985e+01,1.063152831300022712e+02,1.397566725824521257e+02
9.291176647902388197e+01,1.051969607909628905e+02,1.383592604315028893e+02
9.290351878304156230e+01,1.053536049302722546e+02,1.380718445815601001e+02
9.256500104642523752e+01,1.049119631658331713e+02,1.373139059083331688e+02
9.267504076440845040e+01,1.050496237543217148e+02,1.373347212856219812e+02
9.218264617558736518e+01,1.044867620561737596e+02,1.365828793499381391e+02
9.131779168840196803e+01,1.033872474352286304e+02,1.351602156146756499e+02
9.103565714905501238e+01,1.029105995281868218e+02,1.343139930583801060e+02
9.080230950309258731e+01,1.027906304592700621e+02,1.341040557950045695e+02
9.090996823435395413e+01,1.028263500399589390e+02,1.340723390395088757e+02
9.084195402298840349e+01,1.026817230785528636e+02,1.336743041209809917e+02
9.062078526335128004e+01,1.024467227100313949e+02,1.332145332125843424e+02
9.059008534451935191e+01,1.023467841966050145e+02,1.327742123593298231e+02
9.041313007677749169e+01,1.021032157560919700e+02,1.322704954775946931e+02
9.070189229722247148e+01,1.024569081766395726e+02,1.324600872107678242e+02
9.091898845381533079e+01,1.026696787148593728e+02,1.325923349648594467e+02
9.107686317022427147e+01,1.027956929959004100e+02,1.326044291179144921e+02
9.123685025231407053e+01,1.029511377356739246e+02,1.326711495000154741e+02
9.149238214568273975e+01,1.032164646629457536e+02,1.328416428336140029e+02
9.165602035048044627e+01,1.033201851942881291e+02,1.329044012829650399e+02
9.166822723607516821e+01,1.033481572097387442e+02,1.328853395388196361e+02
9.172192737986830480e+01,1.034160281822279330e+02,1.329772567703878963e+02
9.193119086499949333e+01,1.035141832259957937e+02,1.331973358287004885e+02
9.196083747139877573e+01,1.036147278613504454e+02,1.331453525875078583e+02
9.201345899109202264e+01,1.035995752670530123e+02,1.331537636564705167e+02
9.198099663952051230e+01,1.035974872089855978e+02,1.330656565044957063e+02
9.197632224274177304e+01,1.036263994429476014e+02,1.331071811328751835e+02
9.189126458949881737e+01,1.035196748518000902e+02,1.329735431661744087e+02
9.200722228591097007e+01,1.036081834472688428e+02,1.330360993622425099e+02
9.218095058083711990e+01,1.037685621879799669e+02,1.331414800547235870e+02
9.787632901482430725e+01,1.110235666001632353e+02,1.463815987743179505e+02
9.740985720942605042e+01,1.104802289974704621e+02,1.456953385035280348e+02
9.542259860191609278e+01,1.082244375085468562e+02,1.428023255813953654e+02
9.524854984273505920e+01,1.079748415495739806e+02,1.423808263130442811e+02
9.512794849283004339e+01,1.078807491952005506e+02,1.421714486391571768e+02
9.457958171265352121e+01,1.072572702686277637e+02,1.410740169563632662e+02
9.358757570306401874e+01,1.061555585536967641e+02,1.396512449781134535e+02
9.285135564890688897e+01,1.052811030086088380e+02,1.385129944087802869e+02
9.241780303030310506e+01,1.047967049132097799e+02,1.378469439541041766e+02
9.208866956007678084e+01,1.044176351419549036e+02,1.370660822170633821e+02
9.159966322055139187e+01,1.038786988778766016e+02,1.362117616484392215e+02
9.091022219104561941e+01,1.030104449081949696e+02,1.349499044245304162e+02
9.030162118103756086e+01,1.022059183123692065e+02,1.337600935270184550e+02
8.988935663170558144e+01,1.016659633453511447e+02,1.329590503113734030e+02
9.021943917840722804e+01,1.020443290462486630e+02,1.333391900001363695e+02
9.008690330477361385e+01,1.019098599211207556e+02,1.332151672786616814e+02
9.026665646674825894e+01,1.020117469060246833e+02,1.334216510267917783e+02
9.026987148654231419e+01,1.020125126176232868e+02,1.333362825263698994e+02
9.048484514456743000e+01,1.022276301373522500e+02,1.333325316658649911e+02
9.026485463958573519e+01,1.019953869640249025e+02,1.329966845878136326e+02
9.034264852983760363e+01,1.022666528468767240e+02,1.330068046013321066e+02
9.034093470682290672e+01,1.022698094414299987e+02,1.328880107991926707e+02
9.048696085325829586e+01,1.024139611658071658e+02,1.329259617388133847e+02
9.076688813988332072e+01,1.027193198254043409e+02,1.330531503435094294e+02
9.104584454858736819e+01,1.029869061243279020e+02,1.331368271646772143e+02
9.132713084853271823e+01,1.032296526566217381e+02,1.332499666931007312e+02
9.139124769350759436e+01,1.033060010018579078e+02,1.332878407426428851e+02
9.150240582462802763e+01,1.033990914846469877e+02,1.333829692940803966e+02
9.169221224222417277e+01,1.036022347917008943e+02,1.334688149557198642e+02
9.177399858083879280e+01,1.036868143599018026e+02,1.335037300077237603e+02
9.169663344463133114e+01,1.036390837998644088e+02,1.334487893204127431e+02
9.178025455731618365e+01,1.037340352792100759e+02,1.335803850351912558e+02
9.178452331664730934e+01,1.037853827141906891e+02,1.336061073682361666e+02
9.176241261481547440e+01,1.037848804037743662e+02,1.335874447474842555e+02
9.178869966138982761e+01,1.038137705696400701e+02,1.335547930228781013e+02
9.199739344905543703e+01,1.039659342165088560e+02,1.336599213986311270e+02
9.219378036387065833e+01,1.041632553787427327e+02,1.337681470602815068e+02
9.242222372701897370e+01,1.043375542881062898e+02,1.338437672175248281e+02
9.248131588134775427e+01,1.043758199758677137e+02,1.338151126682060408e+02
9.286886065971371806e+01,1.047307027649769822e+02,1.340213739995149353e+02
9.280764309968471082e+01,1.046458616298812387e+02,1.339532743148193958e+02
9.278987004735166977e+01,1.045044189951741060e+02,1.338933994947126109e+02
9.316312396734082313e+01,1.047885777343608709e+02,1.342266754706513439e+02
9.312789205397304215e+01,1.048144587706146780e+02,1.341336701649176177e+02
9.711621475953566573e+01,1.100354104477612651e+02,1.449584577114428328e+02
9.646103147141212730e+01,1.095043829296424747e+02,1.443656780359202401e+02
9.520241822131357878e+01,1.081204279005876430e+02,1.424330037694862483e+02
9.488527603025373480e+01,1.078365142197402662e+02,1.419338886139975102e+02
9.461567741536168796e+01,1.075451545769635686e+02,1.414189824843721510e+02
9.400148308405030662e+01,1.069866369540206392e+02,1.405884938669887276e+02
9.336238312922094451e+01,1.062357017890399788e+02,1.395840585435597347e+02
9.264875159009562822e+01,1.054161908706327893e+02,1.384846352394758355e+02
9.219489393084886331e+01,1.047515834454036394e+02,1.377688422772692718e+02
9.195446790133938464e+01,1.042523397898790449e+02,1.370040601195026966e+02
9.192385681260745400e+01,1.044407755631359578e+02,1.369975508161596167e+02
9.171783847815487434e+01,1.041517943000487492e+02,1.364870810396488139e+02
9.117584834305053221e+01,1.032434143367064223e+02,1.353568144915423375e+02
9.055955172785597540e+01,1.027565131543479851e+02,1.344182570488974306e+02
9.025488902439421679e+01,1.024235599494853375e+02,1.339234749809236575e+02
9.014292374620384862e+01,1.022887728802430587e+02,1.335237856028892907e+02
8.990342724651226547e+01,1.020391304912582058e+02,1.330518600784557748e+02
9.002426489470980187e+01,1.021686344375962534e+02,1.329661466358499808e+02
8.994744830746314790e+01,1.020717808707384364e+02,1.326774538442445532e+02
8.995285068015950003e+01,1.021291152409324923e+02,1.325683170189624605e+02
8.982862683311117280e+01,1.019652349831720954e+02,1.321736883485761780e+02
8.989843653632667042e+01,1.020304027383743204e+02,1.321859966695448634e+02
8.982384059086018624e+01,1.019279519926141546e+02,1.321266348669025774e+02
8.987947931725605599e+01,1.019680205522970624e+02,1.321295752341138723e+02
8.988759571021883232e+01,1.020487109796800524e+02,1.321903344949446080e+02
8.999677202215212901e+01,1.021857234647980874e+02,1.323096563962917003e+02
8.982933771746866114e+01,1.020894995460457864e+02,1.322545518121366115e+02
8.973257609785812861e+01,1.020562081207967253e+02,1.322439438595627905e+02
8.980759423503332073e+01,1.021889012071939362e+02,1.324531165311653638e+02
8.992294855246178997e+01,1.023270514475383237e+02,1.325936781609194952e+02
9.013658182886190673e+01,1.025431577530371641e+02,1.327573265536515521e+02
8.970700924047780234e+01,1.020398248146725990e+02,1.321835060212341943e+02
8.970078848236215663e+01,1.020186002531684295e+02,1.322033155912093321e+02
8.979629832672424072e+01,1.019461591408852996e+02,1.322901826776066230e+02
8.955305915671775097e+01,1.018285724749140115e+02,1.320439036597572624e+02
8.942007251153599157e+01,1.016095363656340425e+02,1.319385818745574568e+02
8.963991229537354855e+01,1.018629782471847705e+02,1.321487603054456770e+02
8.969091721887531321e+01,1.019167292621435905e+02,1.322361790707078626e+02
8.982939564700411950e+01,1.018854974135651901e+02,1.323530293676691940e+02
8.998000666040992712e+01,1.021599406618025370e+02,1.323867397293451518e+02
8.996944707272913888e+01,1.020874719999516884e+02,1.323192504300144208e+02
9.031606619703906347e+01,1.024193140870234942e+02,1.325890808573609263e+02
9.726136047188678901e+01,1.108665054893124307e+02,1.470901538357677509e+02
9.664458577544988316e+01,1.103676892380596399e+02,1.462571559213534158e+02
9.662780711306528758e+01,1.102689568737031465e+02,1.460107086355324384e+02
9.656149739080015593e+01,1.099701834492977071e+02,1.455460314392474004e+02
9.515844077277847646e+01,1.082473424941665172e+02,1.432900236484629488e+02
9.455687387752729478e+01,1.077246548094933729e+02,1.423187532587915598e+02
9.463807299470973078e+01,1.076097711079172825e+02,1.421929681049509497e+02
9.466271890903851727e+01,1.075286316715585286e+02,1.420057870107018516e+02
9.445907012426701499e+01,1.074417631331083811e+02,1.416917783246742033e+02
9.399043004694843262e+01,1.068942347417839045e+02,1.409757408450704190e+02
9.356688249070116115e+01,1.063636194398007859e+02,1.402529497399315233e+02
9.305496125119131534e+01,1.056083045826283779e+02,1.394298790623453499e+02
9.264668664668657527e+01,1.050705521584641957e+02,1.387775228434569499e+02
9.274059857101191540e+01,1.053962634878973148e+02,1.389017388451443651e+02
9.270194983044946468e+01,1.053304603947483571e+02,1.388227762803233247e+02
9.257243776631534615e+01,1.051757663008484940e+02,1.386736249267518986e+02
9.193292211695339233e+01,1.044156517445688337e+02,1.376823138792683778e+02
9.232728884213103981e+01,1.048379660821536987e+02,1.383068783259414829e+02
9.231571493274476836e+01,1.047597288223325478e+02,1.382990395191845039e+02
9.232652177646747305e+01,1.048273984170377133e+02,1.383488671656957081e+02
9.228162874798748305e+01,1.048408986245033248e+02,1.383121981172153880e+02
9.244326738901003182e+01,1.050862263192122299e+02,1.384641203415790471e+02
9.243762403557369112e+01,1.051474276658139644e+02,1.384728156473198339e+02
9.234149871638206264e+01,1.049458556220352108e+02,1.384685117427270029e+02
9.244543890449453727e+01,1.052953195224719281e+02,1.386614220505617538e+02
9.184993052498343502e+01,1.045431226612370352e+02,1.374407570713185294e+02
9.187365936491768537e+01,1.045394701986753745e+02,1.372110307352691905e+02
9.196289513338074073e+01,1.045274925071617389e+02,1.367716812107765350e+02
9.219716629814955411e+01,1.044970324682882676e+02,1.364767704979503833e+02
9.254039876761973460e+01,1.047476781124786100e+02,1.366105263157895138e+02
9.243972822910566833e+01,1.048954685792696324e+02,1.364354305897898882e+02
9.263545628275714705e+01,1.050546378813394170e+02,1.365144683481233017e+02
9.290285991426505063e+01,1.052487437028693051e+02,1.366266184799275720e+02
9.298196540645542996e+01,1.052837872335125837e+02,1.366021960300856506e+02
9.329833370458372599e+01,1.055307240619740270e+02,1.368199281011781636e+02
9.304623688230243772e+01,1.053584435059845248e+02,1.366579933137309126e+02
9.321826282689488608e+01,1.054513731286059937e+02,1.368116083630674211e+02
9.314208371724870972e+01,1.053511418518221348e+02,1.367330299113851027e+02
9.300525608794252719e+01,1.052538080449572817e+02,1.365685047569753010e+02
9.304782208768254748e+01,1.053101221624380628e+02,1.366175771167695814e+02
9.308574533210905599e+01,1.053488735843281887e+02,1.365682858891948968e+02
9.615516551655163369e+01,1.099268301830182679e+02,1.462435660232691532e+02
9.561439267886868265e+01,1.094601001697507314e+02,1.458753760567404072e+02
9.558267493416002480e+01,1.092879496282960190e+02,1.455559555955595670e+02
9.496256906752734039e+01,1.084807507375352884e+02,1.443952822192883048e+02
9.476609112130716994e+01,1.082225750623841947e+02,1.440194518232312362e+02
9.454763547813946900e+01,1.077808791801510893e+02,1.435423210546354085e+02
9.429851619693972964e+01,1.075981045967259604e+02,1.431641805699563292e+02
9.361811244136391963e+01,1.068476705018397155e+02,1.422019533711405472e+02
9.315928138237892142e+01,1.062396268247341027e+02,1.412596988998263328e+02
9.260265941915048415e+01,1.056427902937189600e+02,1.403631282615693010e+02
9.230205120782625272e+01,1.054143647639087504e+02,1.398987905036538280e+02
9.212500091839504535e+01,1.053740696657775970e+02,1.396324435921737859e+02
9.167743780070730963e+01,1.050109447445194206e+02,1.389561081144081243e+02
9.129062185478073843e+01,1.045011897915168930e+02,1.381820920201294882e+02
9.108351196090202961e+01,1.042099445540027034e+02,1.377631970047729340e+02
9.053349319361392133e+01,1.033741575644899626e+02,1.367081317474067816e+02
9.034316335107877194e+01,1.033005218548612874e+02,1.364114107593162828e+02
8.993333795445884959e+01,1.026835788306242279e+02,1.356092191453229248e+02
8.964800795995412841e+01,1.023250930028995498e+02,1.349795667159034167e+02
8.972851478673184999e+01,1.024479926696506169e+02,1.349899412073276608e+02
8.979214728918728383e+01,1.025203438103958007e+02,1.350075034754008811e+02
8.996168817381861516e+01,1.026698334810581485e+02,1.350921600280396149e+02
9.005706083803376316e+01,1.027933655654042582e+02,1.351570104754231352e+02
9.020946469096247711e+01,1.027803097049793166e+02,1.351798858630356790e+02
9.034495041022772455e+01,1.030894625852582607e+02,1.352464298658934752e+02
9.052521501362326717e+01,1.032233168174428073e+02,1.351243636857261947e+02
9.061565339147225018e+01,1.033381178591750853e+02,1.350989597652279315e+02
9.073381626142048617e+01,1.033212579999615599e+02,1.351865133913444481e+02
9.060072515624263190e+01,1.033645977450184716e+02,1.350319132356916896e+02
9.058406642159971511e+01,1.033749841551527879e+02,1.349877360882240964e+02
9.048450098095064220e+01,1.032968799443073635e+02,1.348965761660654721e+02
9.054725345508614964e+01,1.033718957901150617e+02,1.349848819255652188e+02
9.009289394320177280e+01,1.028556829605427936e+02,1.343314966071876881e+02
9.020714285714291236e+01,1.029344626388102881e+02,1.344343528452223779e+02
9.037857644470099672e+01,1.030883534387241696e+02,1.345277548026654131e+02
9.045287605654885965e+01,1.029294044680479061e+02,1.345226643728027511e+02
9.037662647762937240e+01,1.029442067006537656e+02,1.343333798484228794e+02
9.052241013300958627e+01,1.030136183113909425e+02,1.343401188675233868e+02
9.048451817471624281e+01,1.029362161665364823e+02,1.341085673146148736e+02
9.064089211846091132e+01,1.030672841087966134e+02,1.341756567949139196e+02
9.080958586604202765e+01,1.032084430713897945e+02,1.342511140880880873e+02
9.094840904688115302e+01,1.033412921348315479e+02,1.342880454523441642e+02
9.082522036892510187e+01,1.030830020993278566e+02,1.340506621655141544e+02
9.068209743220542407e+01,1.028412976961842702e+02,1.336700053995679127e+02
9.598158713366329664e+01,1.104364680545584747e+02,1.469500971860136644e+02
9.540532249973276180e+01,1.096455175703349454e+02,1.460112872850479846e+02
9.524128361858197422e+01,1.095681988590057898e+02,1.456667114914424417e+02
9.478513341086022592e+01,1.089920615692735737e+02,1.448290895435604853e+02
9.427490706245328056e+01,1.083808818762780248e+02,1.440314487052769152e+02
9.397261406561025865e+01,1.079994749298600851e+02,1.434053463111863209e+02
9.374462652040315902e+01,1.077244926823029658e+02,1.430065175357360943e+02
9.307524366620977219e+01,1.068221600349134093e+02,1.419075752819483682e+02
9.264890729411769144e+01,1.062434447058823537e+02,1.409070795294118454e+02
9.222232174179157482e+01,1.057941475029297038e+02,1.401148107510990428e+02
9.209149917798481511e+01,1.056723195639616648e+02,1.397350000740553071e+02
9.219476927591517779e+01,1.057453231604431068e+02,1.396036534370185791e+02
9.223903392586356631e+01,1.057240550267643471e+02,1.394289274165555526e+02
9.239760539333720146e+01,1.058140568226589693e+02,1.394680500226180015e+02
9.225082656612538301e+01,1.055135404582366476e+02,1.390298796403712345e+02
9.218810102008791318e+01,1.053219284603420931e+02,1.387518195234777352e+02
9.218061666091554684e+01,1.053312413733610242e+02,1.386738555325512436e+02
9.212875467435070220e+01,1.052507847188953889e+02,1.384936507482535433e+02
9.161026738043797479e+01,1.046862066885906017e+02,1.376770220268692526e+02
9.098189198827996904e+01,1.039267288098850344e+02,1.366190499500010560e+02
9.069050595548148408e+01,1.035363267006979839e+02,1.360588776608673243e+02
9.039193676435044722e+01,1.031489040764903393e+02,1.355456870663767575e+02
9.008600305110601880e+01,1.027170405633649750e+02,1.348193717990629921e+02
8.948482936794044917e+01,1.017497963897568098e+02,1.335534593714117477e+02
8.963390538033401356e+01,1.018187417174661960e+02,1.335546812880994878e+02
8.958742003213497185e+01,1.019617468563223355e+02,1.333669108007135833e+02
8.938178930375450193e+01,1.016415534031141021e+02,1.328280053897830157e+02
8.957880660785053806e+01,1.018790365453924096e+02,1.331385659072748524e+02
8.973077899340698593e+01,1.017490709223089311e+02,1.331828672216184088e+02
8.970223713646524288e+01,1.019717893849496022e+02,1.331392212171319045e+02
8.946295546298433976e+01,1.016578691918023765e+02,1.326442149451000887e+02
8.941360713148678485e+01,1.014157083731296609e+02,1.324244699140402020e+02
8.932799244808066419e+01,1.014434612964129627e+02,1.322166865953430488e+02
8.946185153877459584e+01,1.015261200338122904e+02,1.322422278576123347e+02
8.958406515248609026e+01,1.016271301955511603e+02,1.322818532818532447e+02
8.961267482517486371e+01,1.016075206043956314e+02,1.322609983766232347e+02
8.963288286181904141e+01,1.015747580079494696e+02,1.321948686774220221e+02
8.976865430903986010e+01,1.016477859252091775e+02,1.321629382863099238e+02
8.986278239675347379e+01,1.016344400316730656e+02,1.320081842476431007e+02
9.019337700946921643e+01,1.018444358804962917e+02,1.320053616432994943e+02
9.060306767696866359e+01,1.021311373130548361e+02,1.321145571489711870e+02
9.075218968256342578e+01,1.022331794610473281e+02,1.321386589131020912e+02
9.744861615428067125e+01,1.111602638586298184e+02,1.462765633825546558e+02
9.535125464666036521e+01,1.086376978094454842e+02,1.429603742858357691e+02
9.498787198500346562e+01,1.081417832603914349e+02,1.420795709653280596e+02
9.472635964393445818e+01,1.076747168332644122e+02,1.412444438694031987e+02
9.484966303784352704e+01,1.077303098007433420e+02,1.410648077161779383e+02
9.520414882275353818e+01,1.079643338573570617e+02,1.411020509206556426e+02
9.541604968961999589e+01,1.080970266209833142e+02,1.411717411902884294e+02
9.560560286225393156e+01,1.081867370304114644e+02,1.411621681574241052e+02
9.577576829129735358e+01,1.082878926664394186e+02,1.411338935753240378e+02
9.605802240595778585e+01,1.085514793403994389e+02,1.414441894095785983e+02
9.620527749548330121e+01,1.086806261291779379e+02,1.414700026817975811e+02
9.625752442676889586e+01,1.086156773211566531e+02,1.413889450020691356e+02
9.651210133137382741e+01,1.088928287758709104e+02,1.416863696005876534e+02
9.723663503249993312e+01,1.097084169813705472e+02,1.426018973480647389e+02
9.710636592863814087e+01,1.094531311526371695e+02,1.420496183206107332e+02
9.660144987287853269e+01,1.088514979729265946e+02,1.412385556242698499e+02
9.720030600972917512e+01,1.093903133512182535e+02,1.418046683636713112e+02
9.738379934266492910e+01,1.095782677926195987e+02,1.418147961648644468e+02
9.741930716561589065e+01,1.095929970849433914e+02,1.417225679614940930e+02
9.707272970845828297e+01,1.091330341443810568e+02,1.410046485925280422e+02
9.686932190488801098e+01,1.085952543270345245e+02,1.403472482377468680e+02
9.683492668814518822e+01,1.085689986192385703e+02,1.401961864685383148e+02
9.700891616185472799e+01,1.087481544856160980e+02,1.403096104423989630e+02
9.705331884256625585e+01,1.088134476929001551e+02,1.402032982813426543e+02
9.677820896877268808e+01,1.084872328561053934e+02,1.396347552910053196e+02
9.603048499885760236e+01,1.076080201323923546e+02,1.385581461207492282e+02
9.586848306332834113e+01,1.074027694179420109e+02,1.382284625728371736e+02
9.581818819374051088e+01,1.072779616063858441e+02,1.380414060657065249e+02
9.481165617687909730e+01,1.061240255758955584e+02,1.365832467873722180e+02
9.446786963498156808e+01,1.058138782072172148e+02,1.361828629776879040e+02
9.406298963045018979e+01,1.052596418351333512e+02,1.356265731253269848e+02
9.406877112476256286e+01,1.052679545062048163e+02,1.357225871512101207e+02
9.389233710794398746e+01,1.051452607323115274e+02,1.355849472728283445e+02
9.386656492785795081e+01,1.052074392650141590e+02,1.355545289184856301e+02
9.367225572237259712e+01,1.050537718434655403e+02,1.352990247354171629e+02
9.379264705882346220e+01,1.051647699536246421e+02,1.352558823529410859e+02
9.388752382776519312e+01,1.052314371448637473e+02,1.352193796116415569e+02
9.423122292205198391e+01,1.055693984296306382e+02,1.354774092547420139e+02
9.417297120180585068e+01,1.054759256562421967e+02,1.353348047960584779e+02
9.433269007052672350e+01,1.055878008288698311e+02,1.354453721431862050e+02
9.444420594370711797e+01,1.056981679112372632e+02,1.355353357317774226e+02
9.426429315818809584e+01,1.055522497031095099e+02,1.354457871840236294e+02
9.424137941474793934e+01,1.055493134716987385e+02,1.354400230104302523e+02
9.415959491672096249e+01,1.055000470673975457e+02,1.353860498307091973e+02
9.380436021831411608e+01,1.051410642813826115e+02,1.349530109157065283e+02
9.362878714372357081e+01,1.050239023650697874e+02,1.348210764099454195e+02
9.372302038190279916e+01,1.049110704444201474e+02,1.349340319506657409e+02
9.377201220587068065e+01,1.051842217237752237e+02,1.350703813118880419e+02
9.370931343901432342e+01,1.051930473372780313e+02,1.350668906908223050e+02
9.387015361883483422e+01,1.052432929137511763e+02,1.352799544516489618e+02
9.390069873113853305e+01,1.052388178522437556e+02,1.353573663776209344e+02
9.380795160002070077e+01,1.054314746753902199e+02,1.353370249436159440e+02
9.384718065825047972e+01,1.054955663391680503e+02,1.353951682458418020e+02
9.373160332279648799e+01,1.054105405670318447e+02,1.352366389766962982e+02
9.386149501335491152e+01,1.053818704207406114e+02,1.353581317846551997e+02
9.365398870347218008e+01,1.053188022249994447e+02,1.351782266166776196e+02
9.325283730936477866e+01,1.048515027484297661e+02,1.346077205200897140e+02
9.351814319797448150e+01,1.051137434268186581e+02,1.350027327393125347e+02
9.350102554256243081e+01,1.051110267921088877e+02,1.350605847268826096e+02
9.337669932545867368e+01,1.049774227024387017e+02,1.349494429692029200e+02
9.342030764544620070e+01,1.049714255254340571e+02,1.348908224185196616e+02
9.343871459031390714e+01,1.049377886079805222e+02,1.348706457508376673e+02
9.347234373570046273e+01,1.050134346115125936e+02,1.349679509471951064e+02
9.340975497983629339e+01,1.048794635219356621e+02,1.349769613833556434e+02
9.317278707584982556e+01,1.046893430835603027e+02,1.347922865098062175e+02
9.334119557439308323e+01,1.048710757600778720e+02,1.349677314789330751e+02
9.299825858487115227e+01,1.045161829402419045e+02,1.345373457167296749e+02
9.324006331448249796e+01,1.048092728055078169e+02,1.349292353085812408e+02
9.698159618573785679e+01,1.099880762852404814e+02,1.452022263681592733e+02
9.658821568186175455e+01,1.099011861002057344e+02,1.453917673143122897e+02
9.581943917682168887e+01,1.090491318041653983e+02,1.443648195175040598e+02
9.549691547166722216e+01,1.086798913265515267e+02,1.438413571924664609e+02
9.486096800788246242e+01,1.078785948402404387e+02,1.426649212764673109e+02
9.435525008875468700e+01,1.073490751562680003e+02,1.419280827791983199e+02
9.392156816418787457e+01,1.066569916480608669e+02,1.411697794473781755e+02
9.338878460452521324e+01,1.062189480379456796e+02,1.403336539431125232e+02
9.306654033795470582e+01,1.057380487562607669e+02,1.395706683069024052e+02
9.280177906089161866e+01,1.054390025469138834e+02,1.391266050469704112e+02
9.255832912811875701e+01,1.051699467339501268e+02,1.386675749929912911e+02
9.200879513948946453e+01,1.044587346039058673e+02,1.377721838073754554e+02
9.162307235955067597e+01,1.039114498876403871e+02,1.368987865168539031e+02
9.074359456620496189e+01,1.032233988189870360e+02,1.357821052407448690e+02
9.061976865723634944e+01,1.030076231621489313e+02,1.352134485401713846e+02
8.998850248893805315e+01,1.023290099557522268e+02,1.343171321902653688e+02
8.980675039246467861e+01,1.019400894136918652e+02,1.338469285373012667e+02
8.920527376553577881e+01,1.014035102452133401e+02,1.328712898891500913e+02
8.900028125206810614e+01,1.010935907616967029e+02,1.322969690953609074e+02
8.909006022103105238e+01,1.012214578783666923e+02,1.323792469062271948e+02
8.909727711249124127e+01,1.012195742826296367e+02,1.323338649022539926e+02
8.915940999223674623e+01,1.012924545059803592e+02,1.323560310004079952e+02
8.904300944678230678e+01,1.011586192861409899e+02,1.321385900070243054e+02
8.904881461482374050e+01,1.010677663257330607e+02,1.321698625097714626e+02
8.894070471327390237e+01,1.010238236479775935e+02,1.320624776724992842e+02
8.902982575480083938e+01,1.011386537857778478e+02,1.321356875621370648e+02
8.914344142184486941e+01,1.012672341367791375e+02,1.322034328251284307e+02
8.921797283312621119e+01,1.014107085906940426e+02,1.323209387996850808e+02
8.904920699867513179e+01,1.012130517236900999e+02,1.320469988049774770e+02
8.922843530349122432e+01,1.013412610601628074e+02,1.320465115528903937e+02
8.925369439071563704e+01,1.013936782720825960e+02,1.320690457769181876e+02
8.944778035128351235e+01,1.015702052370842949e+02,1.322055008685583459e+02
8.968268205380984170e+01,1.016923183489105469e+02,1.324633862669101632e+02
8.964972930222982939e+01,1.016124681721149585e+02,1.323917337517039812e+02
8.951663581504419653e+01,1.017069876518653473e+02,1.322791563872484346e+02
8.940673773768318711e+01,1.016201496918580887e+02,1.321813369606714446e+02
8.919824386362827795e+01,1.014075686461964949e+02,1.319436875014034456e+02
8.930442693317957037e+01,1.015153693382023050e+02,1.320503267345760889e+02
8.948136801060290679e+01,1.014399646568448503e+02,1.322317217622917553e+02
8.947565676161953263e+01,1.016437832542594890e+02,1.322903645083012236e+02
8.945151665202459412e+01,1.016330868141521933e+02,1.321951569363468764e+02
8.961127705454829595e+01,1.016486766232728911e+02,1.322993818385112377e+02
8.942243910230801873e+01,1.016524878204616584e+02,1.321033911029471142e+02
8.932868301253883203e+01,1.015298298857919121e+02,1.320262183531665698e+02
8.939979821715917296e+01,1.015973953411151172e+02,1.321432051544022102e+02
8.978869975909722712e+01,1.019032173196398929e+02,1.323722422974514927e+02
8.980192405223792207e+01,1.018940471662228049e+02,1.324021174083935080e+02
8.981127738871508370e+01,1.018381724560478858e+02,1.324461527228397699e+02
8.977439825778877491e+01,1.017102621570657277e+02,1.323536263261819386e+02
8.944877028268193442e+01,1.015574006276150101e+02,1.321816862690070877e+02
8.979450678331429003e+01,1.018476290097628265e+02,1.323788576137949065e+02
8.999948440564311625e+01,1.019547099386347782e+02,1.325452868982096959e+02
9.006433233747335976e+01,1.020924572290278007e+02,1.325748929739825712e+02
9.021716475674458025e+01,1.023098447519618190e+02,1.326818799675282605e+02
9.018293457614743147e+01,1.022868410128683934e+02,1.326020352969294436e+02
9.049162547662764666e+01,1.026038883396884245e+02,1.328724536710131758e+02
9.056301840606315068e+01,1.026950524878783995e+02,1.329256602174834541e+02
9.057553886881461835e+01,1.027417632741142342e+02,1.329299721469437827e+02
9.058254463376022159e+01,1.027652021254917543e+02,1.329141495681616050e+02
9.061893324290900864e+01,1.028596788676851332e+02,1.330204616669493305e+02
9.055463490256630621e+01,1.028227954378935323e+02,1.329880884623487418e+02
9.056607663682997611e+01,1.028935023383284886e+02,1.330545861410039095e+02
9.073642889469981299e+01,1.029062405712560775e+02,1.331451272251834155e+02
9.071950467124965201e+01,1.028527045403037050e+02,1.331634307874393812e+02
9.040605660663308640e+01,1.028247303543912494e+02,1.329659911844199485e+02
9.051892961951008942e+01,1.028081075440195775e+02,1.330749026006881195e+02
9.050085514480460347e+01,1.026990207008388012e+02,1.330353681556742629e+02
9.033855953742542511e+01,1.028234527894267671e+02,1.329925244630829297e+02
9.032989014124710536e+01,1.027923495188726548e+02,1.329128992882168063e+02
9.037403338564710964e+01,1.027449913603144722e+02,1.329408569933894171e+02
9.058492838129045310e+01,1.028885283305869649e+02,1.331507542147293464e+02
9.071374382050962026e+01,1.029926163011788134e+02,1.332728482697425534e+02
9.054118392698697448e+01,1.030166212447711018e+02,1.331201831664343160e+02
9.064483774876407551e+01,1.030494485993155109e+02,1.331832900240841298e+02
9.053714349093677072e+01,1.029580016478641511e+02,1.330571713778679168e+02
9.042978642619841878e+01,1.028551305173231327e+02,1.328916279069765949e+02
9.051080301685902896e+01,1.029418240588160529e+02,1.330064235010773928e+02
9.050613829382685083e+01,1.029038312840664560e+02,1.329612878691848721e+02
9.070977759524863870e+01,1.030674069627851139e+02,1.331102356732166356e+02
9.085463616413267118e+01,1.032159901482499009e+02,1.332996984480335243e+02
9.068635437881881955e+01,1.030499835549202459e+02,1.331515287599145267e+02
9.071196283391404336e+01,1.030722175932938285e+02,1.331710125991010614e+02
9.066317576505858256e+01,1.029267824071158657e+02,1.331011206581583508e+02
9.063453195736063606e+01,1.028820684922019097e+02,1.331104923152481092e+02
9.064852255054427133e+01,1.028644983975671465e+02,1.331111534368880598e+02
9.066178555743763923e+01,1.028494855386160935e+02,1.330360624882363538e+02
9.059061532902897795e+01,1.028122406019761854e+02,1.330031701148341199e+02
9.043630250407692017e+01,1.026812008487542016e+02,1.328967642818014099e+02
9.032386537496957146e+01,1.025893204710425692e+02,1.328176808128731921e+02
9.036746548645861310e+01,1.026146993738526589e+02,1.328423347247717174e+02
9.041033289583575083e+01,1.026576309823598621e+02,1.330083836246145665e+02
9.746085016835016290e+01,1.107882365319864277e+02,1.464051473063972537e+02
9.676111063793553058e+01,1.102411549271782008e+02,1.460279746188569732e+02
9.636728353140921399e+01,1.098696392190153404e+02,1.456294651952462118e+02
9.606016110260594587e+01,1.095022546856163217e+02,1.451062726563575325e+02
9.611323864342209333e+01,1.095323574475132489e+02,1.450948817756429037e+02
9.556097340068585311e+01,1.090452324197924980e+02,1.443642142271953901e+02
9.494919316833779988e+01,1.082779344134423098e+02,1.432415132359394079e+02
9.419919070512818848e+01,1.073940785256411203e+02,1.421831650641024964e+02
9.397886650868873915e+01,1.072724012638231414e+02,1.418393878357029791e+02
9.379552549019604157e+01,1.070797921568627800e+02,1.415419764705882528e+02
9.339247330595080143e+01,1.066337495006380180e+02,1.409511653072386252e+02
9.247545380872121257e+01,1.055383116907823080e+02,1.394679889358560843e+02
9.231058406658019067e+01,1.051749333750205722e+02,1.387722132892640730e+02
9.163003927752713196e+01,1.043556769897936078e+02,1.375669032079081262e+02
9.096131197228827148e+01,1.036908999061846401e+02,1.366040088042144021e+02
9.114585025579634703e+01,1.038817600786627509e+02,1.365512234050132463e+02
9.120266421681209579e+01,1.038777569697184475e+02,1.364460195752799621e+02
9.097270731638889174e+01,1.036484037479660856e+02,1.360387175279134624e+02
9.095393115468401390e+01,1.036594370370370086e+02,1.359087233115468507e+02
9.093432000000015591e+01,1.036646330434783039e+02,1.359002156521738982e+02
9.109151618280320406e+01,1.038364738158077358e+02,1.360083032365606073e+02
9.102567783094094978e+01,1.037193017127799521e+02,1.358863671035295795e+02
9.080175257376994580e+01,1.034229039699756072e+02,1.354232586165341843e+02
9.101756187807336573e+01,1.034450460132087386e+02,1.353059521299387882e+02
9.080287306374935952e+01,1.033688325409404172e+02,1.351645825878022720e+02
9.086699409803816252e+01,1.033442913547188624e+02,1.352118831630145337e+02
9.076926537498088976e+01,1.032839766201455660e+02,1.350511119063443175e+02
9.086379841907960042e+01,1.033673194980169967e+02,1.350557566414950372e+02
9.036849569804816440e+01,1.027042702852022842e+02,1.342688804144964934e+02
9.047618151197215752e+01,1.027962578871113948e+02,1.342870589184446715e+02
9.039148375533359570e+01,1.025999057020183045e+02,1.339873500260822539e+02
9.028890190042821473e+01,1.024703961456102377e+02,1.338141026498927317e+02
9.059938033049043327e+01,1.026449926705757179e+02,1.340396821695095468e+02
9.043199123709629816e+01,1.024898994257643636e+02,1.338710425863841920e+02
9.056050386696313126e+01,1.026648687224084426e+02,1.340921465794801577e+02
9.087133230473017420e+01,1.029315517400535498e+02,1.343333992694280425e+02
9.088889472509298173e+01,1.029986573083135113e+02,1.343466015784012768e+02
9.048746411483253382e+01,1.026378720298434928e+02,1.337177649825642618e+02
9.065272620676186932e+01,1.028791772522961736e+02,1.340643085141032600e+02
9.093631480586006433e+01,1.031877654638838493e+02,1.344470052406654759e+02
9.079180176308975092e+01,1.028067958383790454e+02,1.341524636379025992e+02
9.083326149284548023e+01,1.029453228576840615e+02,1.342767981347595878e+02
9.085049238447521702e+01,1.029613091441897836e+02,1.342920096678080597e+02
9.088553982410867604e+01,1.030382493287152812e+02,1.343642435005575919e+02
9.098384037852427753e+01,1.029749279839415124e+02,1.343524029249599323e+02
9.115629860031103249e+01,1.031619394764126838e+02,1.344877170813893486e+02
9.114322773823433010e+01,1.032638758929551273e+02,1.344802565773765366e+02
9.100420669624340064e+01,1.031298554147649043e+02,1.341391848329130312e+02
9.129809957644054919e+01,1.034643075201790197e+02,1.345264349076958013e+02
9.101936933348211767e+01,1.032137701365542881e+02,1.341713029206967178e+02
9.766731577801229491e+01,1.110687639244853386e+02,1.470555471799253553e+02
9.687952904305100787e+01,1.105827456959532071e+02,1.467124621476821460e+02
9.673331958641414019e+01,1.104804211607169151e+02,1.464911900483526779e+02
9.651976428717296130e+01,1.102969539868223308e+02,1.461312006934691965e+02
9.622315028877790155e+01,1.099607353270191652e+02,1.456664263637192107e+02
9.685636775553659561e+01,1.106377530100272679e+02,1.463399145968198241e+02
9.650082529825139943e+01,1.102651944762216090e+02,1.458004821049191548e+02
9.604842483445447954e+01,1.097783495330664607e+02,1.452215815318986927e+02
9.521267525653640007e+01,1.088620022234484992e+02,1.440741536099046698e+02
9.449400718664799115e+01,1.079752210367055625e+02,1.429172905076357836e+02
9.396117137505854089e+01,1.073263500858435293e+02,1.421879467769626331e+02
9.348923766989827300e+01,1.067913614725239597e+02,1.415887616251370957e+02
9.270412770443715544e+01,1.057709861263904543e+02,1.403306938332720790e+02
9.190185866013065663e+01,1.049188377511496952e+02,1.392126868494311225e+02
9.159098666686766421e+01,1.046216803740360604e+02,1.387657038228679198e+02
9.125526928594051412e+01,1.042186739693362370e+02,1.381199537994374111e+02
9.058595036462008920e+01,1.034228196306751357e+02,1.370184919724769941e+02
8.934755090809018441e+01,1.021954856182835556e+02,1.353761260608869463e+02
8.854192934840666851e+01,1.012765264035219417e+02,1.340793850932119540e+02
8.833786409143749552e+01,1.010461407016648394e+02,1.337051639297768304e+02
8.796301734711754250e+01,1.006547327843000090e+02,1.330871526195900287e+02
8.786256643887612938e+01,1.004255797109055095e+02,1.329680988421527559e+02
8.767263061322017847e+01,1.003507554060983153e+02,1.327389584430716241e+02
8.779599464658434727e+01,1.003154389176670378e+02,1.327772992989243335e+02
8.769125230393274251e+01,1.004202407825432743e+02,1.327372170563505165e+02
8.776477339105929332e+01,1.004991478541731311e+02,1.327476583170119682e+02
8.789324063027115130e+01,1.004618594094979471e+02,1.328572701965139800e+02
8.779435622111607529e+01,1.005566126355918755e+02,1.328938440229838989e+02
8.776840447745868801e+01,1.004551056036694945e+02,1.328776503611404678e+02
8.769572792934644667e+01,1.003960873583678932e+02,1.328397151952898412e+02
8.762939531692254036e+01,1.002767235611973291e+02,1.328087211596192105e+02
8.781083516031785052e+01,1.004329439572484404e+02,1.329408194025760963e+02
8.763733557138938579e+01,1.003361982734995195e+02,1.328747396546999653e+02
8.749878048780483653e+01,1.002513428336529557e+02,1.328699917785695277e+02
8.726201906707521516e+01,9.992086482805582648e+01,1.324611814776983749e+02
8.767919656152707830e+01,1.001911195343169538e+02,1.327595742520644819e+02
8.760488065526314472e+01,1.002571474950794652e+02,1.327696264431954489e+02
8.756300346975632465e+01,1.002694404426138277e+02,1.327713241212318565e+02
8.757972472851044188e+01,1.003134150953589199e+02,1.327523164406504748e+02
8.730532999367088109e+01,1.000562154082333564e+02,1.324559346341857236e+02
8.709656405284211189e+01,9.991309134246345991e+01,1.322995259833824946e+02
8.691788669423684155e+01,9.979788629175340020e+01,1.321842803430500055e+02
8.686899423446506319e+01,9.959261224108472277e+01,1.320417834454410126e+02
8.642215967078196570e+01,9.920928724279829680e+01,1.312609646090535875e+02
8.639841718967458917e+01,9.919734250676188481e+01,1.312352452666682723e+02
8.658028137852052453e+01,9.922125370919877696e+01,1.312624160549742669e+02
8.653082214066331801e+01,9.914948071216616654e+01,1.313121518559009928e+02
8.617693777248020126e+01,9.895275541694549304e+01,1.310549287265483827e+02
8.614547559265662358e+01,9.893453223334526569e+01,1.309932076825252523e+02
8.599489027293178367e+01,9.879420875860049023e+01,1.308660416734601313e+02
8.602163699307614309e+01,9.875069954188141708e+01,1.308631793690457528e+02
8.590907674226828306e+01,9.880700153887107717e+01,1.307734840171678741e+02
8.589432832726483014e+01,9.884687649825706046e+01,1.308426587018775535e+02
8.577987397218169008e+01,9.877769346038590470e+01,1.306831277696663562e+02
8.542468169085813656e+01,9.840816462948821197e+01,1.302805290297937972e+02
8.567983384302372940e+01,9.866896079674971531e+01,1.304010530810627131e+02
8.551509260302796633e+01,9.851782561328376175e+01,1.302324874463102446e+02
8.566189886248456276e+01,9.872867002039767215e+01,1.304436404249727843e+02
8.561510346378766201e+01,9.868856837606837473e+01,1.303759746588694100e+02
8.554966622995821979e+01,9.865848150227726876e+01,1.303386455798863324e+02
8.543959348201647686e+01,9.861908704651918356e+01,1.302861656265077102e+02
8.552160366052952156e+01,9.868477113909078469e+01,1.303694675734984969e+02
8.560493761927553180e+01,9.865437908334219230e+01,1.304122629252736942e+02
8.569945466812748691e+01,9.880432427748164059e+01,1.304685614009024448e+02
8.556189467312354680e+01,9.878941419182682182e+01,1.303623190196176154e+02
9.619595624570746395e+01,1.115499564467226890e+02,1.490470459152052456e+02
9.615057686207076415e+01,1.115894219691783320e+02,1.490431686507604923e+02
9.613462527157226134e+01,1.115560517106987533e+02,1.489237441332072365e+02
9.587956258312399882e+01,1.112361501075481840e+02,1.484996469796232361e+02
9.566238770279011305e+01,1.110357917925787348e+02,1.482579457697630687e+02
9.519609415711310874e+01,1.105570935383012596e+02,1.477109049309535749e+02
9.513848084060860799e+01,1.104483044270278640e+02,1.474719817273007720e+02
9.402094312692133826e+01,1.091479037267080514e+02,1.457928900809336596e+02
9.417595057629665689e+01,1.093011815647706584e+02,1.460144152468053562e+02
9.323676572484397695e+01,1.082299830625912591e+02,1.446406882746940141e+02
9.180408780034201754e+01,1.065223212946576297e+02,1.423845951945286004e+02
9.152045781062545871e+01,1.062711169038907570e+02,1.419616133714470720e+02
9.104937002555131187e+01,1.058456122059385081e+02,1.414788246350847487e+02
9.085083293159787843e+01,1.054213116217614896e+02,1.406841501955113358e+02
9.056931190799581088e+01,1.052892526414195657e+02,1.402585998271391077e+02
9.054435531976119478e+01,1.052406471715192993e+02,1.401331922777321779e+02
9.026259193224863964e+01,1.047601717461555353e+02,1.396676231334967611e+02
9.022515593669567124e+01,1.048562711182342184e+02,1.396609287513269351e+02
9.012845459380669411e+01,1.046703414357849056e+02,1.395274882400478589e+02
8.967587374713774295e+01,1.043492794756832467e+02,1.388909444284479093e+02
8.960524194925382346e+01,1.042681794898063572e+02,1.387144281665129313e+02
8.948752704659682422e+01,1.041182553880227033e+02,1.385185518357610306e+02
8.947693247162996499e+01,1.041076281105287222e+02,1.384453819144063118e+02
8.959378449320225002e+01,1.041401972001616372e+02,1.384537622829450640e+02
8.959449194697639030e+01,1.041034826974268981e+02,1.384493593880239075e+02
8.971229092370286651e+01,1.041704053443166913e+02,1.384925845932324648e+02
8.968949093687980678e+01,1.042110795302193225e+02,1.385183709175738613e+02
8.978832124096415157e+01,1.043442987872031864e+02,1.386267062255120095e+02
9.011909039491632711e+01,1.046409155937053725e+02,1.389195528495857559e+02
9.003800191522476837e+01,1.045824311383616987e+02,1.388279523055849154e+02
9.014193184270369841e+01,1.046732433643742439e+02,1.389175074282489106e+02
9.022964288080572715e+01,1.047897170873915513e+02,1.390213310806333595e+02
9.008723191060155955e+01,1.046754691564474058e+02,1.389162419705898230e+02
9.021455610337186215e+01,1.048216372720955576e+02,1.390173124648423197e+02
9.013865248226952076e+01,1.047846092662556430e+02,1.390196493670046323e+02
9.014882349042228782e+01,1.047924703387021879e+02,1.390350367866374484e+02
9.012772596010215409e+01,1.047838782487469018e+02,1.390441132538917941e+02
9.015645434328015995e+01,1.048183855013775343e+02,1.390861320410263033e+02
9.015941149150745559e+01,1.048895932855627109e+02,1.391235038481954120e+02
9.009068471337573669e+01,1.048165406050954260e+02,1.390340432590233775e+02
8.997783638535027251e+01,1.046552713641188035e+02,1.389582603503185112e+02
9.004519663665256246e+01,1.047796808792372474e+02,1.390327793961864700e+02
8.985883000450915858e+01,1.046818121535238646e+02,1.389140341105012055e+02
9.002684228462162253e+01,1.048394491922169323e+02,1.390508557570463495e+02
9.006590966990567892e+01,1.049024407190145070e+02,1.391190384023662716e+02
9.021102608131752731e+01,1.049069204987974047e+02,1.392193834843687910e+02
8.998908177748654680e+01,1.048324913067788771e+02,1.390193748821328938e+02
8.999619264240509153e+01,1.048884196993670344e+02,1.390345464135020563e+02
8.989433016877639204e+01,1.048785667194093492e+02,1.390093980748943920e+02
9.004618640441815103e+01,1.050346241697770466e+02,1.392114279507889876e+02
9.015296278078376702e+01,1.051529890145925634e+02,1.392702508607968355e+02
9.019038197793835820e+01,1.051733107598217742e+02,1.393119311507896612e+02
9.016787361397318534e+01,1.051278415595459279e+02,1.392312726915906751e+02
9.017328361626272226e+01,1.051460144572007778e+02,1.392459294148430899e+02
9.031264514440847790e+01,1.053321133025872598e+02,1.394692146665358621e+02
9.033184291999353377e+01,1.052260094508717856e+02,1.394055955678670671e+02
9.021070853331164585e+01,1.052584202391605714e+02,1.393200357927274808e+02
9.043696881091632633e+01,1.054607050032487905e+02,1.395478167641326195e+02
9.056828825910920955e+01,1.055407611336032545e+02,1.396002817813766796e+02
9.062910881498223148e+01,1.054292864061995374e+02,1.395197158540523503e+02
9.081889264445510435e+01,1.057239755351682504e+02,1.397019765008852517e+02
9.074778689843867596e+01,1.055933494286175147e+02,1.395775148881377845e+02
9.077454369869631989e+01,1.054733655239014496e+02,1.395919523579590305e+02
9.089517075130579826e+01,1.055448003214142432e+02,1.396791964644434643e+02
9.070668702290065255e+01,1.055590036159099867e+02,1.395370445962234101e+02
9.091356725896466173e+01,1.055948425171596909e+02,1.396578677272437119e+02
9.097633504492941370e+01,1.055830648267008058e+02,1.396882060333763036e+02
9.087496595369701424e+01,1.057059072338380048e+02,1.396347608747897766e+02
9.106939381838509462e+01,1.057360019167797844e+02,1.397747400367382795e+02
9.098851993620417034e+01,1.055596204146730770e+02,1.396346539074959310e+02
9.085676885102320455e+01,1.056365347559519563e+02,1.395087506967115019e+02
9.098048106692067449e+01,1.056503738985472722e+02,1.395310375486226349e+02
9.085199073633448563e+01,1.056213793978616735e+02,1.394366422385076305e+02
9.103527033951374392e+01,1.058211875075121355e+02,1.395647840636642911e+02
9.116681488208992334e+01,1.059359015597307376e+02,1.396479442205446730e+02
9.122532275332207519e+01,1.059987593677184208e+02,1.396970904968826517e+02
9.144496245228054931e+01,1.060489784257585626e+02,1.398601316053847370e+02
9.142740170908027153e+01,1.061591181246512861e+02,1.398424335897580306e+02
9.160527551365370869e+01,1.061951570697015939e+02,1.399941842266712513e+02
9.178572453998455671e+01,1.062699392055526317e+02,1.401047924000698970e+02
9.190416866909529858e+01,1.065974296566157165e+02,1.401224587241299560e+02
9.202377057813959027e+01,1.065386748204736307e+02,1.401914998420045322e+02
